#Steps	Time [ms]	X [m/s²]	Y [m/s²]	Z [m/s²]
1	0	0.052438	0.026219	0.255042
2	5	0.109383	-0.045418	-0.0274883
3	10	0.063551	-0.107165	0.08706
4	15	-0.063094	-0.011289	-0.170797
5	20	0.235165	0.043589	0.635696
6	25	0.207776	-0.183066	-0.27322
7	30	0.04466	-0.008155	0.111892
8	35	0.011068	0.037173	0.168541
9	40	0.051534	0.041755	0.036606
10	45	0.141852	-0.161055	0.112699
11	49	0.074407	-0.04346	0.166959
12	54	0.052585	0.056866	-0.03409
13	59	0.088077	0.0542	0.266408
14	64	0.221118	-0.108152	-0.121054
15	69	0.031716	0.197482	0.060699
16	74	0.157887	-0.025172	0.544259
17	79	0.190472	-0.196663	-0.287929
18	84	-0.005928	0.078425	0.016216
19	89	-0.024967	-0.003006	0.242574
20	94	0.099102	0.027995	0.227065
21	99	0.120061	-0.031734	-0.133984
22	103	0.105163	0.011328	0.233752
23	108	0.059352	-0.034016	0.094342
24	113	-0.086341	0.018592	0.053352
25	118	0.066637	-0.110213	-0.154283
26	123	0.197401	-0.031007	0.249308
27	128	0.158282	-0.014168	0.25045
28	133	-0.002204	-0.10944	-0.151234
29	138	-0.002193	0.053187	0.102175
30	143	0.050256	0.026703	0.137421
31	148	0.145349	-0.004416	0.146271
32	153	0.044516	-0.066367	-0.06421
33	157	0.058596	-0.049351	0.136329
34	162	0.117893	0.098675	0.211926
35	167	-0.009022	-0.168775	0.039253
36	172	0.012475	-0.020155	-0.218367
37	177	0.203098	0.087206	0.507322
38	182	0.159183	0.143978	-0.005283
39	187	0.034446	-0.116547	-0.071997
40	192	0.060494	0.000828	0.147649
41	197	0.105481	0.084248	0.142147
42	202	0.071586	0.079062	0.043715
43	206	-0.043181	-0.059578	0.048264
44	211	0.157253	-0.106953	0.181504
45	216	0.120717	0.134319	-0.012467
46	221	0.036692	-0.054651	0.013813
47	226	0.074646	0.026662	0.099552
48	231	0.183919	0.06705	0.296892
49	236	0.123415	-0.000023	-0.097873
50	241	-0.065501	-0.171639	0.102833
51	246	0.013483	-0.008703	-0.016857
52	251	0.051553	-0.011044	0.09287
53	256	0.156173	-0.046742	0.137695
54	260	0.045752	-0.096564	0.01545
55	265	0.050292	0.075532	0.024906
56	270	0.076261	0.134746	0.189248
57	275	0.109251	-0.221075	-0.085802
58	280	0.003831	0.020764	0.091006
59	285	0.099154	0.051647	0.34798
60	290	0.070058	-0.110692	-0.12808
61	295	0.060175	-0.074388	0.094228
62	300	0.03604	0.095215	-0.123144
63	305	0.014409	0.087591	0.263605
64	309	0.102529	-0.072544	-0.016582
65	314	0.018594	0.027927	0.019253
66	319	0.147214	-0.031801	0.040609
67	324	0.070208	-0.007807	0.283531
68	329	0.074626	-0.060207	-0.258948
69	334	0.071871	0.109326	0.238119
70	339	0.150171	0.080179	0.236935
71	344	-0.086549	-0.003644	-0.176599
72	349	-0.007461	0.055963	0.074553
73	354	0.042631	0.103355	0.117086
74	359	0.1902	-0.056857	0.216613
75	363	0.072459	-0.056574	-0.089561
76	368	0.057797	-0.034841	0.137323
77	373	0.119482	-0.094257	0.081819
78	378	-0.00029	0.003938	-0.025849
79	383	-0.043193	-0.027068	-0.104377
80	388	0.047597	-0.019782	0.368087
81	393	0.242812	-0.100725	-0.103307
82	398	0.029467	0.021338	0.142715
83	403	0.057924	0.011697	-0.01531
84	408	0.048101	-0.052717	0.084875
85	413	0.019259	-0.04292	0.167878
86	417	-0.023741	0.021649	-0.152355
87	422	0.131309	-0.088102	0.19402
88	427	0.10682	0.010062	0.059575
89	432	0.018097	0.007628	-0.055132
90	437	0.065678	0.122001	0.121526
91	442	0.155926	-0.02877	0.16621
92	447	0.055041	-0.009558	-0.106344
93	452	-0.033424	0.033393	0.177829
94	457	0.01918	0.080898	0.017245
95	462	0.100126	-0.007696	0.114885
96	466	0.059107	0.042397	0.023739
97	471	0.032594	0.08509	-0.05027
98	476	0.053884	-0.015442	0.183569
99	481	0.070301	-0.072571	0.065863
100	486	0.007978	0.113708	-0.153752
101	491	0.067528	-0.053707	0.118739
102	496	0.083877	0.02045	0.151519
103	501	0.045322	-0.034473	-0.004167
104	506	0.076083	-0.04622	0.10073
105	511	0.035184	-0.022154	-0.05232
106	516	0.035009	-0.124537	0.171996
107	520	-0.039056	0.045315	0.066263
108	525	0.046947	-0.066937	-0.091381
109	530	0.106302	-0.018933	0.156965
110	535	0.110541	-0.097496	0.10613
111	540	0.057552	0.084139	-0.158975
112	545	0.071567	-0.071211	0.266091
113	550	0.097431	-0.056555	-0.066548
114	555	-0.079438	0.036685	0.091098
115	560	0.011533	-0.154182	-0.002315
116	565	0.104434	0.011051	0.07397
117	569	0.089613	-0.093881	0.154645
118	574	-0.018093	0.09012	0.003711
119	579	-0.018003	0.032466	0.068048
120	584	0.098881	0.05614	0.070094
121	589	0.160362	-0.063317	0.050676
122	594	0.021318	0.182505	0.026589
123	599	0.142773	-0.144951	0.250511
124	604	0.134912	-0.03697	-0.101119
125	609	-0.085047	0.032338	0.047165
126	614	-0.04887	0.079848	0.049314
127	619	0.049099	0.03893	0.06337
128	623	0.10606	-0.130496	-0.046588
129	628	0.036409	0.113276	0.125259
130	633	0.09105	-0.068438	0.038829
131	638	0.061994	-0.05618	0.08869
132	643	0.025932	-0.129791	-0.176326
133	648	-0.07669	0.216471	0.12488
134	653	0.066706	-0.10877	0.221986
135	658	0.06399	-0.18927	-0.196242
136	663	0.037453	0.07148	0.183721
137	668	0.056335	-0.076656	-0.019795
138	673	0.01315	0.035752	0.087562
139	677	0.072674	-0.18848	-0.012983
140	682	-0.051633	0.024594	0.039519
141	687	0.053501	-0.013665	0.039322
142	692	0.038933	-0.135159	0.096331
143	697	0.134082	-0.03676	-0.125819
144	702	0.069059	0.115971	0.189437
145	707	0.063948	0.008133	0.131289
146	712	-0.012644	-0.06103	-0.095802
147	717	0.063693	0.065602	0.102509
148	722	0.051458	0.053358	0.042411
149	726	0.075038	-0.039867	0.063651
150	731	0.003158	-0.077805	-0.010556
151	736	0.026978	0.087048	0.118208
152	741	0.074515	0.058012	0.024661
153	746	-0.037884	-0.035236	0.053142
154	751	0.01236	0.010227	-0.19978
155	756	0.083805	0.148423	0.225488
156	761	0.169196	-0.085905	0.190997
157	766	0.032492	-0.075943	-0.091213
158	771	0.037097	0.036462	0.107076
159	776	-0.034594	0.045815	-0.065074
160	780	0.037085	-0.064057	0.099715
161	785	0.005914	-0.058971	0.037247
162	790	0.027336	0.034281	0.037062
163	795	0.067721	0.034111	0.108384
164	800	0.103137	-0.278305	-0.0304
165	805	-0.045156	0.21886	0.1366
166	810	0.074246	-0.237489	-0.059531
167	815	0.061959	-0.007486	0.226792
168	820	0.066418	-0.157613	-0.251048
169	825	-0.255693	0.274596	0.524858
170	829	0.324784	-0.305975	-0.500301
171	834	0.09673	0.14604	0.522353
172	839	0.027126	0.114327	-0.049918
173	844	-0.18753	-0.336735	0.02422
174	849	0.144718	0.346639	0.033634
175	854	0.010519	-0.262894	-0.097628
176	859	0.127261	0.086414	0.236556
177	864	0.08134	0.112203	0.085216
178	869	0.014196	-0.193451	-0.108277
179	874	-0.081217	0.012498	-0.226916
180	879	-0.016457	-0.025701	0.408239
181	883	0.121871	0.014947	-0.139627
182	888	-0.095639	0.117366	-0.146083
183	893	0.088371	-0.073903	0.307521
184	898	0.14752	0.05041	-0.027708
185	903	0.058594	-0.145293	0.027252
186	908	0.017782	-0.211309	0.031883
187	913	0.067749	0.147276	0.303452
188	918	-0.101821	0.170379	-0.20814
189	923	0.025014	-0.137948	-0.014036
190	928	0.122616	-0.075289	0.105211
191	933	0.012362	-0.003408	-0.093147
192	937	0.036136	-0.158322	0.126603
193	942	-0.035551	-0.078877	-0.081396
194	947	-0.011538	0.033542	0.143064
195	952	0.114848	0.207376	0.042241
196	957	0.071372	-0.072533	0.151675
197	962	0.06625	-0.146062	-0.10412
198	967	0.106441	0.088253	0.275384
199	972	0.034405	0.00439	-0.088286
200	977	-0.053958	-0.043303	0.10522
201	982	0.001132	0.14283	-0.150345
202	986	-0.034627	0.142119	0.150732
203	991	0.094258	-0.080259	0.092776
204	996	0.038967	-0.125147	-0.055466
205	1001	0.122198	-0.048251	0.176016
206	1006	0.078686	0.19988	-0.180011
207	1011	-0.059952	-0.079991	0.021104
208	1016	0.030921	0.032434	0.056753
209	1021	0.030767	0.18482	0.316278
210	1026	0.111655	-0.083058	-0.219213
211	1031	-0.046215	-0.149384	0.096508
212	1036	0.020754	0.11355	0.186604
213	1040	-0.048472	0.079616	0.059347
214	1045	0.080481	-0.130534	0.016147
215	1050	0.027643	-0.125117	-0.107879
216	1055	-0.036851	-0.014851	0.200138
217	1060	0.056291	0.011442	0.058513
218	1065	0.125134	-0.234122	-0.156299
219	1070	0.041087	0.091207	0.299739
220	1075	-0.066377	0.176562	0.13855
221	1080	-0.046979	-0.196152	-0.040907
222	1085	0.048597	-0.06408	0.0022
223	1090	0.146082	0.053033	-0.012113
224	1094	0.038095	-0.00682	0.22392
225	1099	0.009302	-0.102128	0.015436
226	1104	0.05216	0.015174	0.108318
227	1109	0.028065	0.124743	0.305615
228	1114	-0.084102	0.095519	0.392286
229	1119	0.021193	-0.133778	0.180581
230	1124	0.056841	0.055189	0.203518
231	1129	0.204339	0.095435	-0.286125
232	1134	0.098446	-0.148163	-0.661304
233	1139	0.169463	0.086163	-0.386289
234	1143	0.109031	0.131022	0.025606
235	1148	0.067968	-0.005493	0.249534
236	1153	-0.011028	-0.045986	0.133883
237	1158	0.120123	-0.038606	-0.019333
238	1163	0.164813	0.176106	-0.181318
239	1168	0.180678	-0.103647	-0.335348
240	1173	0.177395	-0.007789	-0.097707
241	1178	0.121691	-0.04827	0.041025
242	1183	0.073414	0.063997	-0.283342
243	1188	0.058748	-0.110321	-0.327221
244	1193	0.137113	-0.040649	-0.273154
245	1198	0.124513	0.042978	0.20015
246	1202	-0.031038	-0.043044	0.597208
247	1207	-0.092856	0.014375	0.196183
248	1212	0.122126	-0.019066	-0.121808
249	1217	0.052395	0.107358	0.107619
250	1222	0.049751	-0.157752	0.037961
251	1227	0.037586	-0.094994	0.214155
252	1232	0.096988	0.139067	0.165419
253	1237	0.020231	-0.01894	-0.049924
254	1242	-0.022773	-0.002161	-0.006772
255	1247	0.029778	-0.047437	0.102905
256	1252	0.02963	0.14825	0.104776
257	1257	0.089072	-0.112295	-0.129333
258	1261	0.014738	0.074181	0.066761
259	1266	0.024199	0.014223	0.025908
260	1271	0.00501	0.047522	0.009095
261	1276	0.078876	-0.210139	-0.138732
262	1281	-0.026393	0.022112	0.136068
263	1286	-0.016728	0.062523	0.230733
264	1291	-0.085768	-0.004528	0.141394
265	1296	-0.061506	-0.01404	-0.150104
266	1301	0.048444	0.021783	0.193876
267	1306	-0.004235	0.028826	0.266802
268	1311	-0.025666	-0.235893	-0.161183
269	1315	0.0269	-0.013048	0.044604
270	1320	0.02915	0.037071	0.180246
271	1325	-0.006749	0.041654	-0.008951
272	1330	0.002819	-0.0968	-0.17099
273	1335	0.002805	0.018093	0.165943
274	1340	0.052846	0.08951	0.065008
275	1345	-0.00939	-0.13499	-0.114082
276	1350	-0.011726	-0.060428	-0.144501
277	1355	0.012167	0.073352	0.116026
278	1360	0.045477	0.087288	0.105914
279	1365	0.028566	-0.1229	-0.309353
280	1369	0.02604	0.056479	0.066406
281	1374	0.01876	0.122938	0.1495
282	1379	0.02105	0.112792	-0.165873
283	1384	0.032863	-0.130892	-0.124527
284	1389	0.023165	-0.01583	0.226477
285	1394	-0.088977	0.103426	0.180062
286	1399	-0.095685	0.031405	-0.276093
287	1404	0.064489	0.021715	-0.115022
288	1409	0.123757	0.021607	0.290756
289	1414	0.080238	0.066787	0.201118
290	1418	-0.089394	-0.131381	-0.040622
291	1423	0.116037	0.052807	0.05969
292	1428	0.01535	0.052544	0.166653
293	1433	-0.018096	-0.071663	-0.186943
294	1438	0.010596	-0.085607	-0.054916
295	1443	-0.037128	-0.00414	0.240918
296	1448	-0.106066	0.010181	-0.008171
297	1453	-0.069785	-0.011321	-0.198814
298	1458	0.114096	-0.23532	0.038147
299	1463	0.185035	0.044728	0.269163
300	1468	0.160279	-0.010317	0.098591
301	1472	-0.040737	0.035022	-0.037762
302	1477	-0.028617	-0.058111	0.062535
303	1482	-0.116666	-0.014918	0.033621
304	1487	-0.099401	0.028061	-0.22397
305	1492	-0.051235	0.018387	0.122762
306	1497	0.144472	0.070734	0.143602
307	1502	0.138986	0.208628	-0.043029
308	1507	0.000048	-0.08082	0.023925
309	1512	0.042952	-0.063733	0.252627
310	1517	0.076108	0.151104	0.094055
311	1522	-0.191229	0.052626	-0.023208
312	1526	-0.059182	-0.052512	-0.144653
313	1531	0.124646	-0.07847	0.103956
314	1536	0.014382	-0.037559	-0.006204
315	1541	-0.061963	-0.061208	-0.149185
316	1546	0.007468	-0.175314	0.073228
317	1551	0.050335	-0.017127	0.084781
318	1556	-0.004737	0.035397	-0.134928
319	1561	0.052492	-0.25319	-0.062749
320	1566	0.140423	-0.135136	0.292714
321	1571	-0.079564	0.089591	0.031449
322	1576	-0.257935	0.255994	-0.059281
323	1580	0.227211	-0.16717	-0.023234
324	1585	0.137889	0.007662	0.07699
325	1590	0.065696	0.012391	0.10521
326	1595	0.120191	0.179179	-0.088382
327	1600	-0.032954	0.142534	0.009784
328	1605	-0.073311	0.13229	0.071708
329	1610	-0.120617	-0.075738	0.028445
330	1615	-0.065196	-0.237443	-0.11471
331	1620	-0.024351	-0.024125	-0.049783
332	1625	0.121168	0.09279	0.169752
333	1629	-0.024832	-0.06737	0.080715
334	1634	0.13499	0.033074	-0.072235
335	1639	0.034209	0.276033	0.056836
336	1644	0.100778	-0.135313	-0.076926
337	1649	0.155099	-0.139407	0.052169
338	1654	-0.146002	-0.181617	0.118649
339	1659	0.095464	-0.159262	-0.044024
340	1664	0.059236	0.127558	-0.096243
341	1669	0.023188	-0.011323	0.023413
342	1674	0.082662	-0.01365	0.109105
343	1679	0.039346	-0.068404	-0.013
344	1683	-0.063343	0.034429	0.00375
345	1688	-0.032041	0.1296	0.015649
346	1693	0.106365	-0.03551	0.079926
347	1698	0.167808	-0.233169	-0.01343
348	1703	0.002508	0.089772	0.136802
349	1708	-0.366957	0.008284	0.066998
350	1713	-0.253104	0.225147	-0.181225
351	1718	-0.058776	-0.140658	-0.020624
352	1723	0.210859	0.11985	-0.003838
353	1728	0.281316	-0.109568	0.222621
354	1732	0.244163	0.339086	0.164308
355	1737	0.018894	0.232523	-0.060565
356	1742	0.104608	-0.319237	0.089901
357	1747	0.044499	-0.15795	0.053699
358	1752	-0.041531	0.109795	-0.072896
359	1757	-0.069927	-0.186313	-0.067765
360	1762	-0.214976	-0.247359	0.039831
361	1767	-0.094729	0.097105	0.087304
362	1772	0.032071	0.108539	-0.206307
363	1777	0.127254	-0.054083	-0.040815
364	1782	0.202895	-0.139622	0.235882
365	1786	0.254324	-0.115092	0.201339
366	1791	-0.035352	-0.293286	0.057323
367	1796	-0.016108	0.049022	-0.081209
368	1801	-0.056548	0.067847	0.005003
369	1806	-0.123007	0.374989	-0.233377
370	1811	0.206537	0.160986	0.101481
371	1816	0.129235	-0.06387	0.232072
372	1821	-0.012038	0.034174	-0.057494
373	1826	-0.026279	-0.163831	-0.092961
374	1831	-0.162012	-0.046222	-0.068663
375	1835	-0.025343	-0.053143	0.019869
376	1840	-0.022833	0.149724	-0.013599
377	1845	0.024952	-0.05839	0.00792
378	1850	0.232198	-0.089086	-0.063624
379	1855	-0.009697	0.082974	0.115459
380	1860	-0.114526	0.158835	-0.264102
381	1865	0.133934	0.084154	0.142418
382	1870	0.22861	0.09327	0.079736
383	1875	0.001035	-0.121715	0.169915
384	1880	-0.153902	0.102945	-0.17893
385	1885	0.266371	-0.081101	0.262918
386	1890	0.257895	-0.164122	0.130515
387	1894	0.03494	-0.201442	-0.25627
388	1899	0.120575	-0.178988	0.178813
389	1904	-0.204189	0.250943	0.075429
390	1909	-0.277064	-0.057785	-0.065576
391	1914	0.081849	-0.033662	-0.136757
392	1919	0.021852	-0.052563	-0.014515
393	1924	0.129004	-0.228685	-0.033512
394	1929	0.030636	-0.044013	0.102518
395	1934	0.018566	-0.060479	0.082939
396	1939	0.070912	0.049466	0.003869
397	1943	0.092011	0.089741	-0.055739
398	1948	0.086786	-0.175281	0.082784
399	1953	-0.118632	-0.095752	-0.024888
400	1958	-0.084672	0.064423	-0.103421
401	1963	0.037311	-0.028856	0.054409
402	1968	0.122934	-0.004877	0.068439
403	1973	0.103254	-0.052524	0.001359
404	1978	0.179014	0.045464	0.091928
405	1983	-0.000644	0.104826	0.012812
406	1988	-0.050695	0.063784	-0.027773
407	1992	-0.01469	0.006261	0.024804
408	1997	0.068808	0.070586	-0.068278
409	2002	0.047014	0.117906	0.039323
410	2007	0.094451	0.129238	0.217895
411	2012	-0.068101	-0.057323	-0.286121
412	2017	0.02043	-0.006983	-0.034425
413	2022	-0.044028	0.002586	0.168349
414	2027	0.175478	-0.140441	-0.058927
415	2032	-0.049449	-0.146893	-0.05625
416	2037	-0.01345	0.11603	-0.127477
417	2042	-0.037219	0.12737	0.197322
418	2046	-0.094239	-0.125921	-0.123057
419	2051	0.034942	0.008185	-0.029487
420	2056	0.087207	-0.063362	0.163729
421	2061	0.153513	-0.046362	0.112861
422	2066	0.152749	-0.096186	0.088463
423	2071	-0.0816	0.1641	-0.10743
424	2076	0.014148	0.089394	-0.142649
425	2081	0.018845	-0.032613	0.127403
426	2086	0.052121	-0.149245	0.067181
427	2091	0.118602	-0.01979	0.004874
428	2096	-0.106043	0.0685	-0.030903
429	2100	-0.003023	-0.167813	-0.059352
430	2105	0.011294	0.035624	0.091107
431	2110	0.097046	-0.090882	0.02153
432	2115	0.025056	0.023981	0.097697
433	2120	0.036849	-0.019042	-0.067254
434	2125	0.132008	0.035875	0.145217
435	2130	0.050311	-0.031044	0.039618
436	2135	-0.035748	-0.021355	-0.063072
437	2140	-0.054639	0.10508	-0.024622
438	2145	-0.042449	0.137927	0.023172
439	2149	-0.020786	-0.005773	-0.048449
440	2154	0.038907	-0.13684	-0.105413
441	2159	0.062549	0.042608	0.019056
442	2164	-0.047406	0.097218	0.057099
443	2169	-0.061472	-0.117786	-0.090966
444	2174	0.112834	0.102087	-0.047608
445	2179	0.007396	0.063442	0.131395
446	2184	0.035962	0.141784	0.054467
447	2189	-0.023806	-0.061524	-0.031612
448	2194	0.047819	-0.025464	-0.024304
449	2199	0.011828	0.105758	0.125981
450	2203	0.076125	-0.135507	0.010943
451	2208	-0.014829	0.053468	-0.046316
452	2213	0.006697	-0.046908	0.030187
453	2218	0.020965	0.027216	0.142065
454	2223	-0.012509	-0.1207	-0.132751
455	2228	0.006622	-0.074812	-0.000996
456	2233	0.063794	-0.024385	0.211146
457	2238	0.182655	-0.031414	-0.145055
458	2243	-0.080446	-0.169504	-0.099046
459	2248	0.051051	-0.011346	-0.186745
460	2253	0.029344	0.134108	0.190787
461	2257	0.088788	-0.00719	0.058743
462	2262	0.040675	-0.047675	-0.094098
463	2267	0.095294	0.021686	0.037467
464	2272	-0.021974	0.102619	0.106404
465	2277	-0.043317	-0.12433	-0.025222
466	2282	0.033172	0.016919	-0.079918
467	2287	0.035391	0.190835	0.111166
468	2292	0.006612	0.03257	0.003352
469	2297	-0.050626	-0.036715	-0.056253
470	2302	0.042584	0.070728	-0.129864
471	2306	0.056674	0.191938	0.087687
472	2311	0.111214	-0.087894	0.106319
473	2316	0.017702	-0.044553	-0.07536
474	2321	0.022381	0.184491	0.032275
475	2326	0.036571	0.059628	0.144142
476	2331	0.081676	-0.186176	-0.149754
477	2336	0.057434	0.08171	-0.003611
478	2341	0.002327	0.036015	0.108434
479	2346	0.035685	-0.171534	0.026854
480	2351	-0.131342	-0.025283	-0.125828
481	2356	0.026627	-0.089513	-0.149037
482	2360	0.038412	-0.017561	0.214005
483	2365	0.124029	-0.210542	-0.046867
484	2370	0.087659	0.009793	-0.065703
485	2375	-0.012887	0.028813	0.084787
486	2380	-0.008056	0.047738	0.124887
487	2385	-0.027084	-0.040691	-0.071187
488	2390	0.070777	0.083456	-0.013627
489	2395	-0.015384	-0.036137	0.12707
490	2400	0.041898	-0.026423	0.009644
491	2405	-0.022666	-0.026292	-0.145336
492	2409	-0.010636	0.114469	-0.013516
493	2414	-0.001049	0.049544	0.129564
494	2419	0.110984	-0.05558	0.038344
495	2424	0.007939	0.144916	-0.052422
496	2429	0.022201	0.110825	0.102771
497	2434	0.057844	-0.049425	-0.026453
498	2439	0.088542	0.105753	-0.01202
499	2444	-0.06683	-0.016335	0.040479
500	2449	0.019311	0.043335	0.009291
501	2454	-0.052292	0.071722	0.009244
502	2459	0.005174	-0.081182	-0.081378
503	2463	0.138627	0.055085	0.176452
504	2468	-0.009843	-0.131107	0.068314
505	2473	-0.069383	-0.008893	0.039371
506	2478	0.019154	0.12463	-0.049016
507	2483	-0.097736	-0.08336	0.058488
508	2488	0.014777	-0.118698	-0.149173
509	2493	0.110046	0.015372	0.082774
510	2498	0.007006	-0.027609	0.099048
511	2503	0.049875	-0.020321	0.038966
512	2508	0.113983	-0.065507	-0.032735
513	2513	-0.105872	-0.027045	-0.056406
514	2517	0.078189	0.11372	-0.032291
515	2522	-0.067597	0.046415	0.060829
516	2527	-0.024357	-0.025323	-0.156378
517	2532	0.056806	0.017707	0.030318
518	2537	0.030304	0.077208	0.018249
519	2542	0.013468	0.045837	-0.015212
520	2547	0.075374	0.074212	0.061137
521	2552	0.05593	0.016637	0.089436
522	2557	-0.127882	0.054692	-0.030188
523	2562	0.022918	0.056803	-0.075325
524	2566	0.118147	-0.074575	0.084747
525	2571	0.010299	0.030672	-0.027702
526	2576	-0.023122	-0.005234	0.072545
527	2581	-0.030158	-0.017125	-0.023157
528	2586	0.051033	0.025864	0.119972
529	2591	0.086533	0.061489	-0.157118
530	2596	0.019362	-0.069913	0.003363
531	2601	-0.01172	-0.017127	0.115373
532	2606	0.119434	-0.03611	0.03614
533	2611	-0.081379	-0.033547	-0.05223
534	2616	-0.069057	-0.045298	-0.118711
535	2620	0.031396	0.045503	0.065414
